node_id,x,y,z,radius,parent_id
0,2.827398,2.573288,0.0,0.044908,-1
1,2.825808,2.581124,0.028915,0.044908,0
2,2.826456,2.590079,0.057528,0.044908,1
3,2.829445,2.59882,0.086059,0.044908,2
4,2.834313,2.608045,0.11418,0.044908,3
5,2.840414,2.615888,0.142479,0.044908,4
6,2.84668,2.62465,0.170477,0.044908,5
7,2.850611,2.632769,0.199076,0.044908,6
8,2.852452,2.639715,0.228192,0.044908,7
9,2.850577,2.644194,0.257758,0.044908,8
10,2.848404,2.64802,0.287433,0.044908,9
11,2.848486,2.650843,0.317288,0.044908,10
12,2.850425,2.652558,0.347168,0.044908,11
13,2.856934,2.653295,0.376402,0.044908,12
14,2.864852,2.653696,0.405331,0.044908,13
15,2.875739,2.652036,0.433208,0.044908,14
16,2.890168,2.650009,0.459399,0.044908,15
17,2.90791,2.651435,0.483486,0.044908,16
18,2.926557,2.654746,0.50674,0.044908,17
19,2.946997,2.662478,0.52721,0.044908,18
20,2.960296,2.67363,0.551679,0.030742,19
21,2.967566,2.686069,0.577906,0.030742,20
22,2.966514,2.697439,0.605503,0.030742,21
23,2.962656,2.708453,0.633124,0.030742,22
24,2.955664,2.720218,0.659797,0.030742,23
25,2.947687,2.729731,0.687094,0.030742,24
26,2.939866,2.737309,0.715039,0.030742,25
27,2.929049,2.746826,0.74132,0.030742,26
28,2.918822,2.756378,0.767856,0.030742,27
29,2.90989,2.766627,0.794594,0.029322,28
30,2.900812,2.772938,0.822449,0.029322,29
31,2.890323,2.777989,0.850091,0.029322,30
32,2.880343,2.782064,0.878084,0.027821,31
33,2.871288,2.782657,0.906653,0.027821,32
34,2.863944,2.779797,0.93557,0.027821,33
35,2.854837,2.77109,0.962714,0.027821,34
36,2.847189,2.762145,0.990304,0.027821,35
37,2.839809,2.753003,1.017908,0.027821,36
38,2.83522,2.740668,1.044828,0.027821,37
39,2.833652,2.726936,1.071432,0.027821,38
40,2.83452,2.712869,1.097903,0.027821,39
41,2.835054,2.697552,1.123688,0.027821,40
42,2.834517,2.680788,1.148551,0.027821,41
43,2.831226,2.660555,1.170382,0.027821,42
44,2.822828,2.638021,1.188169,0.027821,43
45,2.812356,2.612298,1.199215,0.027821,44
46,2.795025,2.588819,1.206171,0.02,45
47,2.779552,2.56324,1.207609,0.02,46
48,2.766693,2.53625,1.205644,0.02,47
49,2.751587,2.510381,1.204263,0.02,48
50,2.734567,2.485909,1.207213,0.02,49
51,2.717468,2.461447,1.210246,0.02,50
52,2.700558,2.436695,1.211217,0.02,51
53,2.681298,2.413873,1.208789,0.02,52
54,2.662452,2.391353,1.202773,0.02,53
55,2.642959,2.369927,1.195,0.02,54
56,2.622365,2.350906,1.184396,0.02,55
57,2.60141,2.333141,1.17236,0.02,56
58,2.580959,2.314303,1.161105,0.02,57
59,2.561736,2.292666,1.153366,0.02,58
60,2.544331,2.268794,1.148318,0.02,59
61,2.526014,2.245514,1.152037,0.02,60
62,2.503563,2.229514,1.163257,0.02,61
63,2.479112,2.215637,1.173676,0.02,62
64,2.453443,2.203396,1.1832,0.02,63
65,2.424951,2.195952,1.188425,0.02,64
66,2.397053,2.185492,1.191716,0.02,65
67,2.369387,2.174013,1.19323,0.02,66
68,2.342984,2.159815,1.193637,0.02,67
69,2.319458,2.141636,1.190208,0.02,68
70,2.296855,2.12259,1.185122,0.02,69
71,2.277085,2.101403,1.177497,0.02,70
72,2.259925,2.079797,1.165829,0.02,71
73,2.243416,2.05858,1.152528,0.02,72
74,2.229266,2.03493,1.140742,0.02,73
75,2.240434,2.080738,1.172531,0.005,73
76,2.252855,2.097587,1.19477,0.005,71
77,2.234788,2.104584,1.21723,0.005,76
78,2.217441,2.11282,1.240273,0.005,77
79,2.200658,2.116766,1.264777,0.005,78
80,2.198618,2.128159,1.291887,0.005,79
81,2.318837,2.126717,1.205116,0.005,70
82,2.337441,2.11585,1.225353,0.005,81
83,2.343068,2.111485,1.253947,0.005,82
84,2.358145,2.102235,1.27786,0.005,83
85,2.370709,2.094172,1.303856,0.005,84
86,2.361209,2.085641,1.325349,0.005,85
87,2.358225,2.077479,1.34879,0.005,86
88,2.375575,2.062664,1.359013,0.005,87
89,2.388922,2.042143,1.364086,0.005,88
90,2.408028,2.031032,1.37577,0.005,89
91,2.412435,2.008962,1.386656,0.005,90
92,2.42983,1.991092,1.388399,0.005,91
93,2.45017,1.978364,1.395421,0.005,92
94,2.320871,2.164045,1.213464,0.005,68
95,2.307334,2.173192,1.238352,0.005,94
96,2.296411,2.188363,1.261706,0.005,95
97,2.27585,2.197249,1.28125,0.005,96
98,2.265248,2.217476,1.300033,0.005,97
99,2.257498,2.220203,1.323645,0.005,98
100,2.234724,2.222552,1.333685,0.005,99
101,2.233484,2.232797,1.356456,0.005,100
102,2.230872,2.256473,1.364047,0.005,101
103,2.22826,2.280149,1.371637,0.005,102
104,2.420011,2.188523,1.210788,0.005,66
105,2.441521,2.19351,1.231077,0.005,104
106,2.46719,2.199747,1.245066,0.005,105
107,2.482497,2.21949,1.260663,0.005,106
108,2.50325,2.226938,1.280447,0.005,107
109,2.524132,2.227095,1.30184,0.005,108
110,2.536658,2.232484,1.322793,0.005,109
111,2.529466,2.241342,1.345038,0.005,110
112,2.522274,2.2502,1.367282,0.005,111
113,2.430289,2.221566,1.203101,0.005,65
114,2.434506,2.231298,1.230338,0.005,113
115,2.447472,2.226686,1.25638,0.005,114
116,2.464664,2.215754,1.278207,0.005,115
117,2.471869,2.196292,1.29942,0.005,116
118,2.474139,2.218101,1.311428,0.005,117
119,2.480399,2.230783,1.332043,0.005,118
120,2.492106,2.240512,1.351875,0.005,119
121,2.503814,2.250241,1.371706,0.005,120
122,2.452951,2.177332,1.198048,0.005,64
123,2.436628,2.163273,1.217781,0.005,122
124,2.413698,2.156865,1.235701,0.005,123
125,2.393699,2.135986,1.240076,0.005,124
126,2.371077,2.126356,1.256331,0.005,125
127,2.348587,2.131351,1.274889,0.005,126
128,2.45617,2.215065,1.192998,0.005,63
129,2.439373,2.20792,1.216573,0.005,128
130,2.430044,2.214463,1.243803,0.005,129
131,2.434652,2.234075,1.264986,0.005,130
132,2.439184,2.253608,1.287298,0.005,131
133,2.444164,2.260653,1.315656,0.005,132
134,2.444979,2.271843,1.337997,0.005,133
135,2.450582,2.272719,1.362345,0.005,134
136,2.475109,2.275136,1.366535,0.005,135
137,2.484192,2.288942,1.385294,0.005,136
138,2.483102,2.313181,1.391316,0.005,137
139,2.47456,2.336545,1.38883,0.005,138
140,2.466018,2.359909,1.386345,0.005,139
141,2.457476,2.383272,1.383859,0.005,140
142,2.506811,2.252908,1.181755,0.005,62
143,2.518066,2.265759,1.205944,0.005,142
144,2.510235,2.274277,1.232817,0.005,143
145,2.490369,2.269898,1.253958,0.005,144
146,2.477655,2.273744,1.280542,0.005,145
147,2.465944,2.278656,1.307716,0.005,146
148,2.460598,2.284363,1.331462,0.005,147
149,2.547416,2.241983,1.16142,0.005,60
150,2.545949,2.225031,1.185582,0.005,149
151,2.548178,2.214259,1.213361,0.005,150
152,2.548729,2.198229,1.238632,0.005,151
153,2.602693,2.296177,1.171058,0.005,58
154,2.629547,2.285043,1.16631,0.005,153
155,2.656964,2.274736,1.159857,0.005,154
156,2.684389,2.264554,1.153209,0.005,155
157,2.712804,2.271627,1.154654,0.005,156
158,2.741983,2.278304,1.152961,0.005,157
159,2.771172,2.284915,1.150901,0.005,158
160,2.799878,2.282391,1.143353,0.005,159
161,2.82219,2.263604,1.145485,0.005,160
162,2.851151,2.263631,1.149417,0.005,161
163,2.87561,2.279745,1.147042,0.005,162
164,2.904641,2.280721,1.151749,0.005,163
165,2.93203,2.286626,1.142304,0.005,164
166,2.957605,2.299846,1.148421,0.005,165
167,2.982298,2.316105,1.144702,0.005,166
168,3.00807,2.320576,1.13096,0.005,167
169,2.622276,2.343142,1.191454,0.005,57
170,2.627128,2.3539,1.218386,0.005,169
171,2.639341,2.347153,1.244158,0.005,170
172,2.649953,2.360232,1.268052,0.005,171
173,2.663335,2.379327,1.286713,0.005,172
174,2.681357,2.391981,1.306906,0.005,173
175,2.688379,2.406905,1.325694,0.005,174
176,2.680142,2.404149,1.349136,0.005,175
177,2.679637,2.421056,1.367546,0.005,176
178,2.679132,2.437963,1.385955,0.005,177
179,2.66287,2.451516,1.399253,0.005,178
180,2.646608,2.465069,1.412552,0.005,179
181,2.651224,2.489634,1.412072,0.005,180
182,2.639263,2.364607,1.205053,0.005,56
183,2.653997,2.359114,1.229741,0.005,182
184,2.651556,2.351199,1.257948,0.005,183
185,2.635068,2.339694,1.279559,0.005,184
186,2.631605,2.316708,1.297561,0.005,185
187,2.638648,2.308288,1.320022,0.005,186
188,2.631996,2.291689,1.337493,0.005,187
189,2.613394,2.278491,1.347727,0.005,188
190,2.593769,2.270137,1.360769,0.005,189
191,2.611033,2.269036,1.378818,0.005,190
192,2.621473,2.252352,1.394234,0.005,191
193,2.634637,2.346505,1.211798,0.005,55
194,2.628455,2.337704,1.239142,0.005,193
195,2.621942,2.340171,1.26807,0.005,194
196,2.62,2.348595,1.296687,0.005,195
197,2.61728,2.372775,1.312905,0.005,196
198,2.611472,2.383385,1.334784,0.005,197
199,2.626645,2.387802,1.354156,0.005,198
200,2.641818,2.39222,1.373527,0.005,199
201,2.66069,2.408519,1.375309,0.005,200
202,2.635724,2.393009,1.216296,0.005,54
203,2.62396,2.389256,1.242768,0.005,202
204,2.605003,2.400433,1.262229,0.005,203
205,2.597138,2.404706,1.29037,0.005,204
206,2.573366,2.405199,1.307415,0.005,205
207,2.568964,2.426684,1.319416,0.005,206
208,2.699809,2.398871,1.227017,0.005,53
209,2.719632,2.39318,1.24855,0.005,208
210,2.739762,2.390021,1.27055,0.005,209
211,2.762198,2.385626,1.289936,0.005,210
212,2.785683,2.389487,1.307981,0.005,211
213,2.799917,2.383027,1.327492,0.005,212
214,2.808218,2.396249,1.347018,0.005,213
215,2.828229,2.385453,1.357412,0.005,214
216,2.848239,2.374658,1.367807,0.005,215
217,2.866867,2.388145,1.37761,0.005,216
218,2.724109,2.432243,1.229259,0.005,52
219,2.739427,2.414022,1.246716,0.005,218
220,2.756421,2.404585,1.269302,0.005,219
221,2.759512,2.38269,1.288558,0.005,220
222,2.773839,2.361271,1.303368,0.005,221
223,2.769267,2.359619,1.327891,0.005,222
224,2.764694,2.357967,1.352413,0.005,223
225,2.749094,2.361062,1.371702,0.005,224
226,2.733494,2.364158,1.390991,0.005,225
227,2.728299,2.387976,1.396532,0.005,226
228,2.726633,2.412562,1.400742,0.005,227
229,2.718663,2.42989,1.416904,0.005,228
230,2.711061,2.408922,1.428197,0.005,229
231,2.70346,2.387953,1.439489,0.005,230
232,2.728639,2.484496,1.225864,0.005,51
233,2.729693,2.506756,1.245614,0.005,232
234,2.746553,2.522731,1.263719,0.005,233
235,2.745251,2.54353,1.284333,0.005,234
236,2.730096,2.565474,1.296965,0.005,235
237,2.727095,2.590476,1.312683,0.005,236
238,2.749331,2.600146,1.318771,0.005,237
239,2.755376,2.600294,1.343029,0.005,238
240,2.739004,2.590793,1.35936,0.005,239
241,2.744887,2.567927,1.367577,0.005,240
242,2.735235,2.545519,1.373024,0.005,241
243,2.723213,2.52372,1.370718,0.005,242
244,2.702448,2.527877,1.384005,0.005,243
245,2.683473,2.535037,1.369387,0.005,244
246,2.664498,2.542197,1.354769,0.005,245
247,2.731875,2.513516,1.218641,0.005,50
248,2.721912,2.533552,1.23813,0.005,247
249,2.724858,2.557411,1.255485,0.005,248
250,2.712369,2.575818,1.27484,0.005,249
251,2.751216,2.538464,1.21481,0.005,49
252,2.763283,2.555497,1.235362,0.005,251
253,2.748096,2.558116,1.214362,0.005,48
254,2.732829,2.575773,1.232838,0.005,253
255,2.722563,2.591296,1.25624,0.005,254
256,2.698848,2.600259,1.271218,0.005,255
257,2.684412,2.615571,1.292166,0.005,256
258,2.802714,2.57115,1.224958,0.005,47
259,2.819361,2.565846,1.248749,0.005,258
260,2.830176,2.549202,1.270824,0.005,259
261,2.829125,2.525358,1.288326,0.005,260
262,2.829801,2.510795,1.314201,0.005,261
263,2.831442,2.50911,1.33909,0.005,262
264,2.831933,2.495744,1.360212,0.005,263
265,2.832424,2.482379,1.381333,0.005,264
266,2.811382,2.470741,1.388175,0.005,265
267,2.78755,2.474385,1.39479,0.005,266
268,2.766203,2.468059,1.406159,0.005,267
269,2.745365,2.473339,1.393396,0.005,268
270,2.804953,2.583284,1.19738,0.02,45
271,2.796378,2.554588,1.195686,0.02,270
272,2.792319,2.524909,1.195445,0.02,271
273,2.79194,2.495184,1.199063,0.02,272
274,2.794077,2.466397,1.207052,0.02,273
275,2.796494,2.437299,1.21393,0.02,274
276,2.797787,2.407956,1.220024,0.02,275
277,2.794648,2.378265,1.22218,0.02,276
278,2.78877,2.348881,1.221589,0.02,277
279,2.780804,2.319975,1.222178,0.02,278
280,2.771534,2.291488,1.223671,0.02,279
281,2.759277,2.264146,1.222953,0.02,280
282,2.749666,2.235819,1.220919,0.02,281
283,2.737663,2.208563,1.217454,0.02,282
284,2.721416,2.183867,1.212638,0.02,283
285,2.703553,2.160488,1.206826,0.02,284
286,2.688256,2.134773,1.20618,0.02,285
287,2.675635,2.107651,1.208032,0.02,286
288,2.663162,2.081815,1.216508,0.02,287
289,2.649683,2.056872,1.226293,0.02,288
290,2.63875,2.030256,1.234708,0.02,289
291,2.629459,2.002591,1.241612,0.02,290
292,2.616596,1.976149,1.24741,0.02,291
293,2.602214,1.950525,1.253432,0.02,292
294,2.579611,1.931255,1.255417,0.02,293
295,2.554002,1.915756,1.254688,0.02,294
296,2.524564,1.916664,1.253716,0.02,295
297,2.495552,1.923323,1.250602,0.02,296
298,2.469482,1.931225,1.238449,0.02,297
299,2.536974,1.935703,1.273301,0.005,296
300,2.548848,1.936808,1.300064,0.005,299
301,2.551715,1.943871,1.323874,0.005,300
302,2.551466,1.93308,1.346424,0.005,301
303,2.54952,1.917611,1.365966,0.005,302
304,2.551497,1.930242,1.38745,0.005,303
305,2.557378,1.942465,1.40845,0.005,304
306,2.558652,1.960125,1.4261,0.005,305
307,2.547197,1.982304,1.424734,0.005,306
308,2.537084,2.005157,1.42541,0.005,307
309,2.512245,2.007985,1.42519,0.005,308
310,2.487406,2.010812,1.424969,0.005,309
311,2.478833,1.989963,1.41416,0.005,310
312,2.601601,1.94047,1.273626,0.005,294
313,2.615875,1.939822,1.299545,0.005,312
314,2.631969,1.944984,1.317965,0.005,313
315,2.648063,1.950146,1.336386,0.005,314
316,2.672791,1.953363,1.338169,0.005,315
317,2.684563,1.933929,1.348597,0.005,316
318,2.613566,1.930428,1.272596,0.005,293
319,2.619723,1.909719,1.29333,0.005,318
320,2.625234,1.88894,1.314254,0.005,319
321,2.644486,1.873967,1.308759,0.005,320
322,2.659033,1.855057,1.316227,0.005,321
323,2.667356,1.858409,1.339562,0.005,322
324,2.67885,1.86574,1.360518,0.005,323
325,2.703331,1.860842,1.359221,0.005,324
326,2.591096,1.962946,1.256096,0.005,292
327,2.580969,1.944358,1.276288,0.005,326
328,2.586511,1.917793,1.28717,0.005,327
329,2.601941,1.892691,1.285563,0.005,328
330,2.608202,1.865901,1.296332,0.005,329
331,2.650733,1.984635,1.252794,0.005,291
332,2.662996,1.960502,1.265195,0.005,331
333,2.666933,1.939453,1.285811,0.005,332
334,2.655316,1.928474,1.310392,0.005,333
335,2.6576,1.929622,1.335261,0.005,334
336,2.675272,1.916977,1.347622,0.005,335
337,2.685787,1.896289,1.338326,0.005,336
338,2.707491,1.885373,1.344227,0.005,337
339,2.724143,1.881136,1.362386,0.005,338
340,2.718459,1.892379,1.38398,0.005,339
341,2.737137,1.89901,1.399216,0.005,340
342,2.755816,1.905641,1.414452,0.005,341
343,2.771386,1.924459,1.419788,0.005,342
344,2.656867,2.080831,1.242857,0.005,289
345,2.67409,2.098524,1.259434,0.005,344
346,2.682635,2.1245,1.270975,0.005,345
347,2.69754,2.140743,1.290754,0.005,346
348,2.69911,2.161197,1.312129,0.005,347
349,2.711704,2.169658,1.331998,0.005,348
350,2.71849,2.183081,1.351967,0.005,349
351,2.733382,2.173279,1.369492,0.005,350
352,2.749177,2.188724,1.381197,0.005,351
353,2.755275,2.21277,1.384293,0.005,352
354,2.759829,2.23486,1.395077,0.005,353
355,2.763239,2.210723,1.400624,0.005,354
356,2.766648,2.186586,1.406171,0.005,355
357,2.747722,2.170756,1.402148,0.005,356
358,2.728795,2.154926,1.398125,0.005,357
359,2.641644,2.066099,1.230291,0.005,288
360,2.622604,2.065339,1.252721,0.005,359
361,2.615875,2.048299,1.275461,0.005,360
362,2.599957,2.032679,1.295256,0.005,361
363,2.59054,2.011512,1.314097,0.005,362
364,2.598106,2.009114,1.337804,0.005,363
365,2.611743,2.004703,1.358288,0.005,364
366,2.625062,1.986015,1.368204,0.005,365
367,2.638382,1.967326,1.378121,0.005,366
368,2.636859,1.965407,1.403,0.005,367
369,2.619151,1.977898,1.415467,0.005,368
370,2.633513,1.99836,1.415629,0.005,369
371,2.647876,2.018822,1.415792,0.005,370
372,2.691934,2.088285,1.224134,0.005,287
373,2.691065,2.060837,1.234225,0.005,372
374,2.684511,2.032875,1.242662,0.005,373
375,2.687232,2.005271,1.25363,0.005,374
376,2.701301,1.984101,1.268889,0.005,375
377,2.713226,1.963282,1.286861,0.005,376
378,2.733914,1.955627,1.30649,0.005,377
379,2.744191,1.944499,1.326379,0.005,378
380,2.762824,1.944087,1.343041,0.005,379
381,2.783239,1.931118,1.349369,0.005,380
382,2.79104,1.932249,1.373094,0.005,381
383,2.785424,1.924675,1.396247,0.005,382
384,2.761007,1.92643,1.40132,0.005,383
385,2.73659,1.928184,1.406393,0.005,384
386,2.709185,2.145562,1.224769,0.005,286
387,2.724465,2.159196,1.246565,0.005,386
388,2.728861,2.180275,1.266979,0.005,387
389,2.726257,2.203256,1.285925,0.005,388
390,2.708939,2.216632,1.30559,0.005,389
391,2.704045,2.221583,1.329601,0.005,390
392,2.69168,2.238632,1.343071,0.005,391
393,2.684525,2.249614,1.364359,0.005,392
394,2.678129,2.1472,1.215602,0.005,285
395,2.657415,2.141263,1.235911,0.005,394
396,2.645295,2.134158,1.262182,0.005,395
397,2.631025,2.113099,1.276862,0.005,396
398,2.630035,2.092431,1.298007,0.005,397
399,2.626467,2.098404,1.322019,0.005,398
400,2.628879,2.100214,1.346837,0.005,399
401,2.6098,2.095221,1.362201,0.005,400
402,2.766032,2.202662,1.225227,0.005,283
403,2.78317,2.202621,1.248899,0.005,402
404,2.801053,2.204011,1.272941,0.005,403
405,2.821186,2.210321,1.294171,0.005,404
406,2.846546,2.211036,1.309867,0.005,405
407,2.847425,2.22165,1.332486,0.005,406
408,2.85411,2.230554,1.354869,0.005,407
409,2.861919,2.248109,1.370864,0.005,408
410,2.838265,2.241387,1.366359,0.005,409
411,2.816312,2.252341,1.371164,0.005,410
412,2.798896,2.260737,1.387011,0.005,411
413,2.764546,2.213892,1.234982,0.005,282
414,2.770931,2.189303,1.250652,0.005,413
415,2.783772,2.169964,1.269422,0.005,414
416,2.802799,2.160403,1.290187,0.005,415
417,2.807019,2.149527,1.31729,0.005,416
418,2.803457,2.146636,1.341866,0.005,417
419,2.802045,2.156855,1.364638,0.005,418
420,2.797482,2.177489,1.377995,0.005,419
421,2.792205,2.201922,1.378448,0.005,420
422,2.79103,2.226818,1.376503,0.005,421
423,2.782401,2.24524,1.391035,0.005,422
424,2.773598,2.239521,1.232359,0.005,281
425,2.792219,2.219457,1.244423,0.005,424
426,2.803041,2.192791,1.252033,0.005,425
427,2.826031,2.174763,1.256555,0.005,426
428,2.849226,2.160327,1.268626,0.005,427
429,2.869438,2.146041,1.285474,0.005,428
430,2.879271,2.127345,1.306397,0.005,429
431,2.873269,2.114278,1.326847,0.005,430
432,2.864024,2.098075,1.34349,0.005,431
433,2.860725,2.10298,1.367781,0.005,432
434,2.842012,2.10723,1.383805,0.005,433
435,2.838494,2.08857,1.400065,0.005,434
436,2.838682,2.067502,1.413524,0.005,435
437,2.825075,2.046619,1.415465,0.005,436
438,2.795988,2.305779,1.233559,0.005,280
439,2.813879,2.32919,1.237236,0.005,438
440,2.826197,2.356395,1.23638,0.005,439
441,2.842762,2.375975,1.250793,0.005,440
442,2.850992,2.398242,1.268856,0.005,441
443,2.759947,2.30741,1.239701,0.005,279
444,2.735986,2.303495,1.257054,0.005,443
445,2.72246,2.282763,1.272646,0.005,444
446,2.69885,2.275312,1.288625,0.005,445
447,2.67324,2.275604,1.304013,0.005,446
448,2.661934,2.279303,1.326001,0.005,447
449,2.66401,2.277582,1.350855,0.005,448
450,2.673105,2.262839,1.368881,0.005,449
451,2.770354,2.334997,1.240774,0.005,278
452,2.759378,2.326217,1.267001,0.005,451
453,2.745649,2.335368,1.291301,0.005,452
454,2.725035,2.33546,1.312736,0.005,453
455,2.71051,2.323672,1.32932,0.005,454
456,2.77914,2.358539,1.238624,0.005,277
457,2.761204,2.346753,1.259353,0.005,456
458,2.745,2.335293,1.281834,0.005,457
459,2.729009,2.323878,1.304505,0.005,458
460,2.730981,2.304451,1.320116,0.005,459
461,2.732953,2.285024,1.335728,0.005,460
462,2.734363,2.26906,1.354915,0.005,461
463,2.718841,2.257761,1.370928,0.005,462
464,2.712399,2.267224,1.393153,0.005,463
465,2.68917,2.267004,1.402393,0.005,464
466,2.671378,2.250902,1.409405,0.005,465
467,2.814805,2.447512,1.217714,0.005,274
468,2.832296,2.435159,1.23832,0.005,467
469,2.836005,2.423718,1.265326,0.005,468
470,2.837161,2.409872,1.291889,0.005,469
471,2.842782,2.387188,1.310202,0.005,470
472,2.841245,2.379984,1.334092,0.005,471
473,2.836804,2.355863,1.338935,0.005,472
474,2.832362,2.331743,1.343778,0.005,473
475,2.810478,2.322061,1.351016,0.005,474
476,2.798692,2.309085,1.36884,0.005,475
477,2.786905,2.296109,1.386663,0.005,476
478,2.788132,2.518525,1.21752,0.005,273
479,2.780391,2.534591,1.241418,0.005,478
480,2.812405,2.539869,1.216338,0.005,271
481,2.831479,2.539039,1.238978,0.005,480
482,2.854613,2.541088,1.257853,0.005,481
483,2.87819,2.543474,1.276247,0.005,482
484,2.905459,2.537794,1.286655,0.005,483
485,2.933152,2.531108,1.296045,0.005,484
486,2.957964,2.529277,1.312532,0.005,485
487,2.981394,2.521658,1.316777,0.005,486
488,2.998928,2.517343,1.334067,0.005,487
489,3.016463,2.513028,1.351356,0.005,488
490,3.031012,2.511508,1.371629,0.005,489
491,2.846398,2.636009,1.178586,0.005,43
492,2.859203,2.61806,1.198419,0.005,491
493,2.867534,2.605247,1.22406,0.005,492
494,2.883984,2.588501,1.24233,0.005,493
